 Temperature versus pressure for Jupiter. - Realistict top and constant N in the bottom.
 Data from Seiff et al, 1997, ``Thermal structure of Jupiter's upper atmosphere derived from the
 Galileo Probe,'' Science 276, 102-104.  Data for p > 335.30 mbar from orton.dat.
 Seiff data have been smoothed with 2*5+1 boxcar average.

#   p[hPa]           T[K]    dT[K]
1122
  1.08100e-06      883.780     0.
  1.11700e-06      880.290     0.
  1.15500e-06      876.580     0.
  1.19400e-06      872.910     0.
  1.23500e-06      869.480     0.
  1.27700e-06      866.360     0.
  1.32000e-06      863.560     0.
  1.36600e-06      861.170     0.
  1.41200e-06      859.170     0.
  1.46100e-06      857.600     0.
  1.51100e-06      856.480     0.
  1.56300e-06      855.770     0.
  1.66200e-06      864.141     0.
  1.71812e-06      863.724     0.
  1.77604e-06      863.518     0.
  1.83580e-06      863.525     0.
  1.89744e-06      863.738     0.
  1.96100e-06      864.138     0.
  2.02652e-06      864.703     0.
  2.09408e-06      865.410     0.
  2.16368e-06      866.229     0.
  2.23540e-06      867.133     0.
  2.30928e-06      868.090     0.
  2.38540e-06      869.066     0.
  2.46380e-06      870.029     0.
  2.54460e-06      870.946     0.
  2.62780e-06      871.784     0.
  2.71352e-06      872.512     0.
  2.80184e-06      873.099     0.
  2.89292e-06      873.516     0.
  2.98680e-06      873.735     0.
  3.08360e-06      873.730     0.
  3.18344e-06      873.479     0.
  3.28648e-06      872.960     0.
  3.39280e-06      872.156     0.
  3.50260e-06      871.048     0.
  3.61604e-06      869.624     0.
  3.73324e-06      867.873     0.
  3.85444e-06      865.789     0.
  3.97984e-06      863.372     0.
  4.10964e-06      860.617     0.
  4.24408e-06      857.520     0.
  4.38336e-06      854.076     0.
  4.52780e-06      850.283     0.
  4.67760e-06      846.144     0.
  4.83308e-06      841.668     0.
  4.99456e-06      836.862     0.
  5.16236e-06      831.742     0.
  5.33688e-06      826.325     0.
  5.51852e-06      820.633     0.
  5.70764e-06      814.686     0.
  5.90472e-06      808.517     0.
  6.11020e-06      802.161     0.
  6.32452e-06      795.660     0.
  6.54812e-06      789.056     0.
  6.78140e-06      782.391     0.
  7.02520e-06      775.707     0.
  7.27968e-06      769.044     0.
  7.54544e-06      762.442     0.
  7.82268e-06      755.936     0.
  8.11236e-06      749.563     0.
  8.41500e-06      743.352     0.
  8.73080e-06      737.328     0.
  9.06024e-06      731.516     0.
  9.40424e-06      725.929     0.
  9.76328e-06      720.585     0.
  1.01374e-05      715.502     0.
  1.05280e-05      710.698     0.
  1.09350e-05      706.186     0.
  1.13592e-05      701.973     0.
  1.18011e-05      698.061     0.
  1.22614e-05      694.449     0.
  1.27409e-05      691.130     0.
  1.32402e-05      688.096     0.
  1.37600e-05      685.334     0.
  1.43007e-05      682.828     0.
  1.48635e-05      680.549     0.
  1.54488e-05      678.458     0.
  1.60578e-05      676.505     0.
  1.66912e-05      674.638     0.
  1.73504e-05      672.793     0.
  1.80360e-05      670.902     0.
  1.87496e-05      668.897     0.
  1.94924e-05      666.707     0.
  2.02668e-05      664.278     0.
  2.10744e-05      661.569     0.
  2.19176e-05      658.550     0.
  2.28000e-05      655.198     0.
  2.37244e-05      651.503     0.
  2.46940e-05      647.473     0.
  2.57120e-05      643.132     0.
  2.67824e-05      638.529     0.
  2.79084e-05      633.708     0.
  2.90940e-05      628.721     0.
  3.03424e-05      623.622     0.
  3.16576e-05      618.454     0.
  3.30424e-05      613.234     0.
  3.45000e-05      607.974     0.
  3.60340e-05      602.675     0.
  3.76484e-05      597.308     0.
  3.93472e-05      591.810     0.
  4.11348e-05      586.095     0.
  4.30176e-05      580.069     0.
  4.50016e-05      573.686     0.
  4.70952e-05      566.940     0.
  4.93104e-05      559.852     0.
  5.16636e-05      552.432     0.
  5.41760e-05      544.711     0.
  5.68704e-05      536.754     0.
  5.97652e-05      528.643     0.
  6.28800e-05      520.397     0.
  6.62356e-05      512.045     0.
  6.98560e-05      503.618     0.
  7.37616e-05      495.134     0.
  7.79720e-05      486.596     0.
  8.25112e-05      477.955     0.
  8.74268e-05      469.145     0.
  9.27820e-05      460.116     0.
  9.86524e-05      450.779     0.
  0.000105122      441.045     0.
  0.000112289      430.857     0.
  0.000120258      420.174     0.
  0.000129145      409.014     0.
  0.000139120      397.479     0.
  0.000150396      385.672     0.
  0.000163146      373.702     0.
  0.000177672      361.720     0.
  0.000194412      349.881     0.
  0.000213692      338.292     0.
  0.000235873      327.038     0.
  0.000261439      316.203     0.
  0.000290912      305.835     0.
  0.000324798      296.042     0.
  0.000363668      286.814     0.
  0.000408328      278.037     0.
  0.000459476      269.669     0.
  0.000517808      261.668     0.
  0.000584096      253.984     0.
  0.000659476      246.591     0.
  0.000745884      239.468     0.
  0.000846052      232.665     0.
  0.000963528      226.171     0.
   0.00110264      219.939     0.
   0.00126740      213.978     0.
   0.00146239      208.372     0.
   0.00169190      203.196     0.
   0.00196076      198.556     0.
   0.00227740      194.471     0.
   0.00265240      190.855     0.
   0.00309626      187.613     0.
   0.00361934      184.735     0.
   0.00423252      182.143     0.
   0.00494815      179.806     0.
   0.00578510      177.728     0.
   0.00677020      175.850     0.
   0.00792576      174.118     0.
   0.00927963      172.490     0.
    0.0108625      170.860     0.
    0.0127061      169.213     0.
    0.0148585      167.627     0.
    0.0173674      166.146     0.
    0.0202919      164.799     0.
    0.0236982      163.630     0.
    0.0276614      162.613     0.
    0.0322773      161.768     0.
    0.0376710      161.046     0.
    0.0439509      160.460     0.
    0.0512206      160.081     0.
    0.0596522      159.940     0.
    0.0693888      160.007     0.
    0.0806580      160.225     0.
    0.0937271      160.536     0.
     0.108831      160.873     0.
     0.126216      161.210     0.
     0.146138      161.566     0.
     0.168928      161.906     0.
     0.194978      162.283     0.
     0.224718      162.663     0.
     0.258627      162.994     0.
     0.297405      163.277     0.
     0.341780      163.451     0.
     0.386394      163.612     0.
     0.431213      163.775     0.
     0.476207      163.944     0.
     0.521326      164.108     0.
     0.566521      164.264     0.
     0.611734      164.410     0.
     0.656936      164.530     0.
     0.702052      164.652     0.
     0.746984      164.758     0.
     0.791604      164.862     0.
     0.835800      164.973     0.
     0.879464      165.069     0.
     0.922420      165.145     0.
     0.964520      165.183     0.
      1.00557      165.181     0.
      1.04530      165.120     0.
      1.08347      165.026     0.
      1.11982      164.913     0.
      1.15408      164.790     0.
      1.18591      164.668     0.
      1.21491      164.524     0.
      1.24068      164.382     0.
      1.26271      164.255     0.
      1.28028      164.147     0.
      1.29264      164.113     0.
      1.30512      164.078     0.
      1.31772      164.044     0.
      1.33044      164.010     0.
      1.34328      163.975     0.
      1.35628      163.941     0.
      1.36944      163.907     0.
      1.38276      163.872     0.
      1.39620      163.838     0.
      1.40976      163.804     0.
      1.42344      163.769     0.
      1.43724      163.735     0.
      1.45124      163.700     0.
      1.46540      163.666     0.
      1.47972      163.631     0.
      1.49416      163.596     0.
      1.50872      163.562     0.
      1.52340      163.527     0.
      1.53828      163.492     0.
      1.55332      163.458     0.
      1.56852      163.423     0.
      1.58388      163.388     0.
      1.59936      163.353     0.
      1.61500      163.318     0.
      1.63080      163.283     0.
      1.64676      163.248     0.
      1.66288      163.212     0.
      1.67916      163.177     0.
      1.69560      163.142     0.
      1.71228      163.106     0.
      1.72912      163.071     0.
      1.74612      163.036     0.
      1.76324      163.000     0.
      1.78052      162.965     0.
      1.79800      162.930     0.
      1.81572      162.894     0.
      1.83364      162.859     0.
      1.85152      162.834     0.
      1.86956      162.810     0.
      1.88776      162.785     0.
      1.90612      162.760     0.
      1.92464      162.736     0.
      1.94332      162.711     0.
      1.96212      162.686     0.
      1.98104      162.662     0.
      2.00008      162.638     0.
      2.01924      162.613     0.
      2.03852      162.589     0.
      2.05788      162.566     0.
      2.07736      162.542     0.
      2.09692      162.518     0.
      2.11656      162.494     0.
      2.13628      162.471     0.
      2.15608      162.448     0.
      2.17592      162.425     0.
      2.19580      162.402     0.
      2.21572      162.379     0.
      2.23568      162.356     0.
      2.25568      162.332     0.
      2.27568      162.309     0.
      2.29568      162.286     0.
      2.31568      162.262     0.
      2.33584      162.228     0.
      2.35600      162.194     0.
      2.37616      162.160     0.
      2.39632      162.126     0.
      2.41652      162.092     0.
      2.43672      162.058     0.
      2.45688      162.024     0.
      2.47704      161.990     0.
      2.49720      161.956     0.
      2.51736      161.922     0.
      2.53756      161.888     0.
      2.55776      161.854     0.
      2.57792      161.820     0.
      2.59808      161.786     0.
      2.61824      161.752     0.
      2.63844      161.718     0.
      2.65864      161.684     0.
      2.67880      161.650     0.
      2.69896      161.616     0.
      2.71912      161.582     0.
      2.73928      161.548     0.
      2.75948      161.513     0.
      2.78012      161.479     0.
      2.80112      161.444     0.
      2.82256      161.410     0.
      2.84444      161.375     0.
      2.86672      161.340     0.
      2.88944      161.304     0.
      2.91256      161.269     0.
      2.93608      161.233     0.
      2.96004      161.197     0.
      2.98440      161.161     0.
      3.00920      161.124     0.
      3.03440      161.088     0.
      3.06004      161.051     0.
      3.08604      161.014     0.
      3.11248      160.976     0.
      3.13936      160.938     0.
      3.16664      160.900     0.
      3.19436      160.862     0.
      3.22244      160.824     0.
      3.25096      160.786     0.
      3.27988      160.747     0.
      3.30924      160.708     0.
      3.33904      160.668     0.
      3.36924      160.629     0.
      3.39984      160.589     0.
      3.43040      160.550     0.
      3.46100      160.510     0.
      3.49156      160.470     0.
      3.52212      160.430     0.
      3.55272      160.391     0.
      3.58328      160.351     0.
      3.61388      160.312     0.
      3.64460      160.272     0.
      3.67572      160.231     0.
      3.70728      160.190     0.
      3.73928      160.148     0.
      3.77172      160.106     0.
      3.80456      160.064     0.
      3.83784      160.021     0.
      3.87152      159.977     0.
      3.90560      159.933     0.
      3.94012      159.888     0.
      3.97504      159.843     0.
      4.01040      159.798     0.
      4.04616      159.751     0.
      4.08240      159.704     0.
      4.11904      159.657     0.
      4.15608      159.609     0.
      4.19356      159.561     0.
      4.23144      159.512     0.
      4.26976      159.462     0.
      4.30848      159.412     0.
      4.34764      159.362     0.
      4.38720      159.310     0.
      4.42716      159.258     0.
      4.46756      159.206     0.
      4.50840      159.153     0.
      4.54996      159.098     0.
      4.59196      159.043     0.
      4.63436      158.986     0.
      4.67716      158.929     0.
      4.72040      158.870     0.
      4.76408      158.810     0.
      4.80820      158.749     0.
      4.85272      158.687     0.
      4.89768      158.624     0.
      4.94308      158.561     0.
      4.98892      158.496     0.
      5.03516      158.430     0.
      5.08184      158.363     0.
      5.12892      158.295     0.
      5.17644      158.226     0.
      5.22440      158.156     0.
      5.27276      158.085     0.
      5.32156      158.012     0.
      5.37080      157.939     0.
      5.42080      157.862     0.
      5.47168      157.780     0.
      5.52340      157.694     0.
      5.57600      157.602     0.
      5.62948      157.506     0.
      5.68380      157.406     0.
      5.73852      157.302     0.
      5.79368      157.194     0.
      5.84932      157.083     0.
      5.90540      156.968     0.
      5.96188      156.850     0.
      6.01880      156.728     0.
      6.07616      156.602     0.
      6.13400      156.473     0.
      6.19224      156.340     0.
      6.25092      156.203     0.
      6.31040      156.061     0.
      6.37084      155.912     0.
      6.43216      155.758     0.
      6.49440      155.598     0.
      6.55752      155.431     0.
      6.62156      155.259     0.
      6.68652      155.080     0.
      6.75240      154.896     0.
      6.81916      154.706     0.
      6.88652      154.512     0.
      6.95432      154.316     0.
      7.02264      154.118     0.
      7.09140      153.917     0.
      7.16084      153.713     0.
      7.23120      153.505     0.
      7.30256      153.294     0.
      7.37488      153.078     0.
      7.44816      152.858     0.
      7.52240      152.635     0.
      7.59764      152.407     0.
      7.67384      152.176     0.
      7.75100      151.941     0.
      7.82912      151.702     0.
      7.90820      151.458     0.
      7.98824      151.211     0.
      8.06932      150.963     0.
      8.15140      150.714     0.
      8.23452      150.463     0.
      8.31864      150.212     0.
      8.40380      149.960     0.
      8.48992      149.707     0.
      8.57708      149.453     0.
      8.66524      149.198     0.
      8.75444      148.942     0.
      8.84464      148.686     0.
      8.93648      148.427     0.
      9.02972      148.166     0.
      9.12440      147.903     0.
      9.22028      147.638     0.
      9.31752      147.373     0.
      9.41568      147.107     0.
      9.51476      146.840     0.
      9.61476      146.572     0.
      9.71608      146.304     0.
      9.81872      146.034     0.
      9.92308      145.762     0.
      10.0292      145.488     0.
      10.1366      145.211     0.
      10.2457      144.933     0.
      10.3566      144.652     0.
      10.4684      144.369     0.
      10.5813      144.084     0.
      10.6959      143.801     0.
      10.8120      143.522     0.
      10.9298      143.244     0.
      11.0492      142.970     0.
      11.1702      142.699     0.
      11.2928      142.431     0.
      11.4170      142.165     0.
      11.5432      141.902     0.
      11.6712      141.642     0.
      11.8008      141.385     0.
      11.9320      141.132     0.
      12.0652      140.882     0.
      12.1996      140.636     0.
      12.3360      140.392     0.
      12.4748      140.152     0.
      12.6156      139.915     0.
      12.7584      139.680     0.
      12.9032      139.449     0.
      13.0492      139.223     0.
      13.1968      139.001     0.
      13.3468      138.786     0.
      13.4988      138.576     0.
      13.6532      138.373     0.
      13.8100      138.176     0.
      13.9688      137.984     0.
      14.1296      137.793     0.
      14.2924      137.602     0.
      14.4572      137.411     0.
      14.6244      137.220     0.
      14.7936      137.030     0.
      14.9656      136.838     0.
      15.1400      136.647     0.
      15.3168      136.455     0.
      15.4956      136.264     0.
      15.6764      136.073     0.
      15.8600      135.882     0.
      16.0460      135.691     0.
      16.2348      135.499     0.
      16.4264      135.308     0.
      16.6200      135.117     0.
      16.8168      134.929     0.
      17.0160      134.744     0.
      17.2176      134.562     0.
      17.4224      134.383     0.
      17.6304      134.205     0.
      17.8412      134.027     0.
      18.0544      133.850     0.
      18.2700      133.673     0.
      18.4888      133.496     0.
      18.7112      133.319     0.
      18.9364      133.143     0.
      19.1644      132.967     0.
      19.3960      132.791     0.
      19.6304      132.616     0.
      19.8684      132.440     0.
      20.1092      132.266     0.
      20.3536      132.091     0.
      20.6012      131.917     0.
      20.8520      131.743     0.
      21.1068      131.569     0.
      21.3652      131.396     0.
      21.6268      131.223     0.
      21.8924      131.052     0.
      22.1612      130.884     0.
      22.4340      130.717     0.
      22.7104      130.550     0.
      22.9908      130.382     0.
      23.2752      130.215     0.
      23.5636      130.047     0.
      23.8556      129.879     0.
      24.1516      129.711     0.
      24.4520      129.542     0.
      24.7568      129.374     0.
      25.0656      129.205     0.
      25.3788      129.036     0.
      25.6964      128.866     0.
      26.0188      128.697     0.
      26.3452      128.527     0.
      26.6764      128.357     0.
      27.0124      128.186     0.
      27.3532      128.016     0.
      27.6988      127.847     0.
      28.0492      127.678     0.
      28.4048      127.509     0.
      28.7656      127.341     0.
      29.1312      127.172     0.
      29.5024      127.004     0.
      29.8784      126.834     0.
      30.2600      126.663     0.
      30.6472      126.489     0.
      31.0396      126.314     0.
      31.4380      126.136     0.
      31.8420      125.957     0.
      32.2520      125.775     0.
      32.6680      125.592     0.
      33.0900      125.406     0.
      33.5184      125.218     0.
      33.9532      125.030     0.
      34.3944      124.841     0.
      34.8416      124.652     0.
      35.2956      124.462     0.
      35.7564      124.272     0.
      36.2240      124.080     0.
      36.6988      123.889     0.
      37.1804      123.696     0.
      37.6692      123.503     0.
      38.1652      123.308     0.
      38.6688      123.112     0.
      39.1800      122.914     0.
      39.6988      122.716     0.
      40.2252      122.516     0.
      40.7596      122.315     0.
      41.3024      122.113     0.
      41.8532      121.909     0.
      42.4124      121.704     0.
      42.9804      121.498     0.
      43.5568      121.295     0.
      44.1424      121.093     0.
      44.7368      120.893     0.
      45.3404      120.694     0.
      45.9532      120.498     0.
      46.5752      120.303     0.
      47.2068      120.108     0.
      47.8480      119.914     0.
      48.4992      119.719     0.
      49.1604      119.525     0.
      49.8316      119.330     0.
      50.5136      119.137     0.
      51.2060      118.943     0.
      51.9092      118.749     0.
      52.6232      118.556     0.
      53.3484      118.362     0.
      54.0848      118.170     0.
      54.8328      117.978     0.
      55.5924      117.789     0.
      56.3640      117.600     0.
      57.1476      117.413     0.
      57.9432      117.228     0.
      58.7516      117.044     0.
      59.5728      116.862     0.
      60.4068      116.680     0.
      61.2540      116.496     0.
      62.1144      116.311     0.
      62.9884      116.124     0.
      63.8764      115.936     0.
      64.7784      115.746     0.
      65.6952      115.554     0.
      66.6264      115.360     0.
      67.5724      115.168     0.
      68.5336      114.981     0.
      69.5104      114.797     0.
      70.5028      114.618     0.
      71.5108      114.444     0.
      72.5348      114.273     0.
      73.5752      114.107     0.
      74.6324      113.946     0.
      75.7064      113.789     0.
      76.7972      113.637     0.
      77.9052      113.488     0.
      79.0308      113.342     0.
      80.1744      113.200     0.
      81.3360      113.062     0.
      82.5160      112.928     0.
      83.7144      112.797     0.
      84.9308      112.671     0.
      86.1672      112.550     0.
      87.4228      112.435     0.
      88.6972      112.325     0.
      89.9936      112.220     0.
      91.3072      112.121     0.
      92.6416      112.027     0.
      93.9996      111.938     0.
      95.3768      111.856     0.
      96.7768      111.776     0.
      98.1984      111.695     0.
      99.6408      111.615     0.
      101.108      111.534     0.
      102.594      111.452     0.
      104.107      111.371     0.
      105.642      111.291     0.
      107.203      111.216     0.
      108.784      111.148     0.
      110.392      111.086     0.
      112.024      111.030     0.
      113.682      110.980     0.
      115.364      110.936     0.
      117.072      110.899     0.
      118.806      110.868     0.
      120.568      110.844     0.
      122.356      110.826     0.
      124.168      110.814     0.
      126.008      110.808     0.
      127.876      110.807     0.
      129.772      110.812     0.
      131.696      110.824     0.
      133.648      110.842     0.
      135.628      110.867     0.
      137.636      110.900     0.
      139.672      110.941     0.
      141.740      110.990     0.
      143.836      111.047     0.
      145.960      111.112     0.
      148.120      111.186     0.
      150.304      111.268     0.
      152.520      111.357     0.
      154.768      111.449     0.
      157.048      111.544     0.
      159.360      111.641     0.
      161.704      111.741     0.
      164.080      111.844     0.
      166.488      111.949     0.
      168.932      112.057     0.
      171.408      112.170     0.
      173.916      112.286     0.
      176.460      112.406     0.
      179.040      112.530     0.
      181.652      112.658     0.
      184.300      112.790     0.
      186.980      112.926     0.
      189.700      113.067     0.
      192.456      113.211     0.
      195.248      113.359     0.
      198.076      113.509     0.
      200.944      113.663     0.
      203.844      113.820     0.
      206.788      113.980     0.
      209.768      114.143     0.
      212.784      114.309     0.
      215.844      114.479     0.
      218.940      114.652     0.
      222.076      114.830     0.
      225.252      115.011     0.
      228.468      115.196     0.
      231.724      115.385     0.
      235.020      115.578     0.
      238.360      115.775     0.
      241.740      115.976     0.
      245.160      116.180     0.
      248.624      116.386     0.
      252.128      116.596     0.
      255.676      116.809     0.
      259.272      117.025     0.
      262.908      117.244     0.
      266.592      117.466     0.
      270.320      117.692     0.
      274.092      117.924     0.
      277.908      118.162     0.
      281.772      118.406     0.
      285.676      118.656     0.
      289.628      118.912     0.
      293.624      119.174     0.
      297.668      119.442     0.
      301.760      119.717     0.
      305.896      119.997     0.
      310.080      120.283     0.
      314.308      120.575     0.
      318.588      120.872     0.
      322.912      121.176     0.
      327.288      121.486     0.
      331.712      121.802     0.
      336.180      122.123     0.
      340.696      122.451     0.
      345.264      122.787     0.
      349.880      123.131     0.
      354.544      123.483     0.
      359.256      123.842     0.
      364.016      124.209     0.
      368.828      124.583     0.
      373.688      124.964     0.
      378.596      125.352     0.
      383.556      125.744     0.
      388.564      126.140     0.
      393.624      126.540     0.
      398.736      126.944     0.
      403.900      127.352     0.
      409.116      127.764     0.
      414.384      128.179     0.
      419.704      128.598     0.
      425.076      129.019     0.
      430.500      129.444     0.
      435.980      129.871     0.
      441.508      130.301     0.
      447.092      130.734     0.
      452.728      131.169     0.
      458.416      131.605     0.
      464.160      132.044     0.
      469.956      132.485     0.
      475.804      132.925     0.
      481.704      133.365     0.
      487.660      133.805     0.
      493.672      134.245     0.
      499.736      134.684     0.
      505.852      135.123     0.
      512.020      135.561     0.
      518.244      136.000     0.
      524.520      136.438     0.
      530.852      136.876     0.
      537.236      137.313     0.
      543.676      137.750     0.
      550.168      138.186     0.
      556.712      138.622     0.
      563.312      139.058     0.
      569.964      139.493     0.
      576.668      139.927     0.
      583.428      140.361     0.
      590.240      140.794     0.
      597.112      141.228     0.
      604.032      141.660     0.
      611.008      142.092     0.
      618.040      142.524     0.
      625.128      142.955     0.
      632.272      143.385     0.
      639.472      143.815     0.
      646.728      144.245     0.
      654.040      144.674     0.
      661.408      145.103     0.
      668.832      145.531     0.
      676.316      145.959     0.
      683.860      146.386     0.
      691.460      146.813     0.
      699.120      147.240     0.
      706.836      147.666     0.
      714.612      148.092     0.
      722.448      148.517     0.
      730.348      148.942     0.
      738.308      149.366     0.
      746.328      149.791     0.
      754.412      150.215     0.
      762.560      150.638     0.
      770.768      151.061     0.
      779.040      151.484     0.
      787.372      151.907     0.
      795.772      152.329     0.
      804.232      152.751     0.
      812.756      153.172     0.
      821.340      153.593     0.
      829.992      154.014     0.   
      838.708      154.434     0.
      847.488      154.854     0.
      856.336      155.273     0.
      865.248      155.693     0.
      874.224      156.112     0.
      883.264      156.530     0.
      892.368      156.948     0.
      901.540      157.366     0.
      910.776      157.783     0.
      920.076      158.200     0.
      929.436      158.616     0.
      938.892      159.033     0.
      948.400      159.448     0.
      957.960      159.863     0.
      967.608      160.278     0.
      977.300      160.692     0.
      987.076      161.107     0.
      996.896      161.519     0.
      1006.79      161.932     0.
      1016.76      162.345     0.
      1026.81      162.757     0.
      1036.92      163.169     0.
      1047.11      163.581     0.
      1057.36      163.992     0.
      1067.67      164.402     0.
      1078.04      164.812     0.
      1088.52      165.222     0.
      1099.04      165.631     0.
      1109.62      166.039     0.
      1120.28      166.448     0.
      1131.04      166.857     0.
      1141.84      167.264     0.
      1152.72      167.671     0.
      1163.68      168.078     0.
      1174.72      168.485     0.
      1185.84      168.892     0.
      1197.00      169.297     0.
      1208.24      169.702     0.
      1219.56      170.107     0.
      1230.92      170.511     0.
      1242.40      170.915     0.
      1253.92      171.318     0.
      1265.56      171.722     0.
      1277.24      172.125     0.
      1289.00      172.527     0.
      1300.84      172.929     0.
      1312.76      173.331     0.
      1324.72      173.731     0.
      1336.76      174.132     0.
      1348.92      174.533     0.
      1361.16      174.933     0.
      1373.44      175.333     0.
      1385.80      175.732     0.
      1398.28      176.131     0.
      1410.80      176.530     0.
      1423.40      176.928     0.
      1436.08      177.325     0.
      1448.84      177.723     0.
      1461.68      178.120     0.
      1474.60      178.516     0.
      1487.60      178.912     0.
      1500.68      179.308     0.
      1513.84      179.703     0.
      1527.08      180.099     0.
      1540.40      180.493     0.
      1553.80      180.888     0.
      1567.28      181.281     0.
      1580.84      181.675     0.
      1594.52      182.069     0.
      1608.24      182.462     0.
      1622.04      182.854     0.
      1635.92      183.245     0.
      1649.92      183.638     0.
      1664.00      184.030     0.
      1678.12      184.420     0.
      1692.32      184.810     0.
      1706.64      185.200     0.
      1721.04      185.590     0.
      1735.52      185.980     0.
      1750.08      186.369     0.
      1764.72      186.757     0.
      1779.48      187.146     0.
      1794.32      187.535     0.
      1809.24      187.922     0.
      1824.24      188.310     0.
      1839.32      188.697     0.
      1854.48      189.083     0.
      1869.76      189.470     0.
      1885.12      189.856     0.
      1900.56      190.242     0.
      1916.08      190.627     0.
      1931.72      191.012     0.
      1947.44      191.397     0.
      1963.20      191.780     0.
      1979.08      192.164     0.
      1995.04      192.547     0.
      2011.12      192.931     0.
      2027.28      193.314     0.
      2043.52      193.696     0.
      2059.88      194.079     0.
      2076.32      194.461     0.
      2092.84      194.842     0.
      2109.48      195.224     0.
      2126.16      195.604     0.
      2142.96      195.984     0.
      2159.84      196.364     0.
      2176.80      196.743     0.
      2193.88      197.122     0.
      2211.04      197.501     0.
      2228.28      197.879     0.
      2245.64      198.257     0.
      2263.08      198.635     0.
      2280.60      199.012     0.
      2298.24      199.389     0.
      2316.00      199.766     0.
      2333.84      200.143     0.
      2351.76      200.519     0.
      2369.76      200.894     0.
      2387.88      201.269     0.
      2406.12      201.645     0.
      2424.44      202.020     0.
      2442.84      202.394     0.
      2461.36      202.768     0.
      2479.96      203.141     0.
      2498.64      203.514     0.
      2517.44      203.887     0.
      2536.36      204.260     0.
      2555.36      204.632     0.
      2574.48      205.004     0.
      2593.72      205.377     0.
      2613.04      205.748     0.
      2632.48      206.120     0.
      2652.00      206.491     0.
      2671.64      206.861     0.
      2691.40      207.232     0.
      2711.24      207.602     0.
      2731.20      207.972     0.
      2751.28      208.343     0.
      2771.44      208.712     0.
      2791.72      209.081     0.
      2812.08      209.449     0.
      2832.56      209.818     0.
      2853.16      210.186     0.
      2873.88      210.555     0.
      2894.68      210.922     0.
      2915.64      211.290     0.
      2936.68      211.658     0.
      2957.80      212.024     0.
      2979.08      212.391     0.
      3000.48      212.758     0.
      3021.96      213.125     0.
      3043.52      213.490     0.
      3065.20      213.855     0.
      3087.00      214.220     0.
      3108.92      214.585     0.
      3130.96      214.950     0.
      3153.08      215.314     0.
      3175.32      215.678     0.
      3197.68      216.042     0.
      3220.16      216.406     0.
      3242.76      216.769     0.
      3265.48      217.132     0.
      3288.28      217.494     0.
      3311.20      217.857     0.
      3334.20      218.218     0.
      3357.36      218.580     0.
      3380.64      218.941     0.
      3404.00      219.302     0.
      3427.48      219.662     0.
      3451.08      220.023     0.
      3474.76      220.382     0.
      3498.60      220.742     0.
      3522.56      221.101     0.
      3546.60      221.460     0.
      3570.76      221.818     0.
      3595.08      222.177     0.
      3619.48      222.535     0.
      3644.00      222.893     0.
      3668.64      223.250     0.
      3693.40      223.607     0.
      3718.28      223.964     0.
      3743.28      224.321     0.
      3768.40      224.677     0.
      3793.64      225.033     0.
      3818.96      225.388     0.
      3844.40      225.743     0.
      3869.96      226.097     0.
      3895.64      226.451     0.
      3921.48      226.806     0.
      3947.44      227.160     0.
      3973.52      227.514     0.
      3999.68      227.866     0.
      4026.00      228.220     0.
      4052.44      228.572     0.
      4079.00      228.925     0.
      4105.68      229.277     0.
      4132.48      229.629     0.
      4159.40      229.980     0.
      4186.48      230.331     0.
      4213.64      230.682     0.
      4240.92      231.032     0.
      4268.36      231.383     0.
      4295.92      231.733     0.
      4323.60      232.083     0.
      4351.36      232.432     0.
      4379.28      232.780     0.
      4407.32      233.129     0.
      4435.48      233.477     0.
      4463.76      233.825     0.
      4492.20      234.173     0.
      4520.76      234.520     0.
      4549.44      234.867     0.
      4578.28      235.215     0.
      4607.20      235.561     0.
      4636.28      235.907     0.
      4665.44      236.253     0.
      4694.76      236.598     0.
      4724.20      236.943     0.
      4753.76      237.288     0.
      4783.48      237.633     0.
      4813.32      237.977     0.
      4843.24      238.321     0.
      4873.32      238.664     0.
      4903.52      239.007     0.
      4933.88      239.350     0.
      4964.36      239.693     0.
      4994.96      240.035     0.
      5025.68      240.377     0.
      5056.56      240.718     0.
      5087.56      241.060     0.
      5118.68      241.400     0.
      5149.96      241.741     0.
      5181.36      242.082     0.
      5212.88      242.422     0.
      5244.52      242.761     0.
      5276.32      243.100     0.
      5308.24      243.439     0.
      5340.28      243.778     0.
      5372.48      244.116     0.
      5404.80      244.454     0.
      5437.28      244.792     0.
      5469.88      245.130     0.
      5502.64      245.467     0.
      5535.52      245.804     0.
      5568.52      246.140     0.
      5601.68      246.477     0.
      5635.00      246.813     0.
      5668.44      247.149     0.
      5702.00      247.484     0.
      5735.72      247.819     0.
      5769.56      248.154     0.
      5803.56      248.488     0.
      5837.72      248.823     0.
      5872.00      249.157     0.
      5906.44      249.491     0.
      5941.00      249.824     0.
      5975.72      250.157     0.
      6010.56      250.490     0.
      6045.56      250.823     0.
      6080.72      251.155     0.
      6116.00      251.487     0.
      6151.44      251.819     0.
      6187.00      252.150     0.
      6222.72      252.482     0.
      6258.56      252.812     0.
      6294.56      253.143     0.
      6330.72      253.473     0.
      6367.00      253.803     0.
      6403.44      254.133     0.
      6440.00      254.462     0.
      6476.72      254.791     0.
      6513.56      255.119     0.
      6550.56      255.448     0.
      6587.72      255.776     0.
      6625.00      256.103     0.
      6662.44      256.431     0.
      6700.00      256.758     0.
      6737.72      257.084     0.
      6775.56      257.410     0.
      6813.56      257.736     0.
      6851.72      258.062     0.
      6890.00      258.387     0.
      6928.44      258.712     0.
      6967.04      259.037     0.
      7005.76      259.361     0.
      7044.64      259.685     0.
      7083.68      260.009     0.
      7122.88      260.333     0.
      7162.20      260.656     0.
      7201.68      260.979     0.
      7241.32      261.301     0.
      7281.08      261.624     0.
      7321.00      261.945     0.
      7361.08      262.267     0.
      7401.32      262.588     0.
      7441.68      262.909     0.
      7482.24      263.230     0.
      7522.92      263.551     0.
      7563.76      263.871     0.
      7604.76      264.191     0.
      7645.92      264.510     0.
      7687.24      264.830     0.
      7728.68      265.148     0.
      7770.32      265.467     0.
      7812.08      265.786     0.
      7854.00      266.104     0.
      7896.08      266.422     0.
      7938.32      266.739     0.
      7980.68      267.056     0.
      8023.24      267.373     0.
      8065.92      267.690     0.
      8108.76      268.006     0.
      8151.76      268.322     0.
      8194.92      268.637     0.
      8238.24      268.953     0.
      8281.72      269.268     0.
      8325.36      269.583     0.
      8369.16      269.897     0.
      8413.12      270.212     0.
      8457.24      270.525     0.
      8501.52      270.839     0.
      8545.92      271.152     0.
      8590.52      271.465     0.
      8635.28      271.778     0.
      8680.16      272.090     0.
      8725.20      272.402     0.
      8770.44      272.714     0.
      8815.84      273.026     0.
      8861.40      273.337     0.
      8907.12      273.648     0.
      8953.00      273.959     0.
      8999.04      274.269     0.
      9045.24      274.579     0.
      9091.64      274.889     0.
      9138.16      275.199     0.
      9184.88      275.508     0.
      9231.76      275.818     0.
      9278.80      276.126     0.
      9326.00      276.435     0.
      9373.36      276.743     0.
      9417.00      277.061     0.
      9464.00      277.364     0.
      9512.00      277.672     0.
      9560.00      277.979     0.
      9608.00      278.285     0.
      9657.00      278.596     0.
      9705.00      278.898     0.
      9754.00      279.206     0.
      9803.00      279.513     0.
      9852.00      279.818     0.
      9901.00      280.122     0.
      9950.00      280.424     0.
